#== Filter Data - Lambda 9 Spectrophotometer ==
#  Kitt Peak National Observatory - NOAO
#------------------------------------------------
#Filter: K1004  .1NM/15NMPERMIN/0.5S   520-1000NM
#Date: 08/25/04   Time: 14:05:02  Operator: HS
#cwl=  6425.50A  fwhm= 1474.04A  Tmax= 86.49% at  5964.00A
#Tcutoff=  2.00 %  Slitsize =  1 A
#fwhm spans 5688.48A to 7162.52A
#90%  spans 5801.48A to 6321.47A
#bw90 is  0.353; Tmin90/Tmax is  0.900
#No data smoothing
#
#Npts= 1201     Disp=  4.00A/Interval
#*****
  5200.00     0.010
  5204.00    -0.020
  5208.00     0.025
  5212.00     0.010
  5216.00    -0.020
  5220.00    -0.005
  5224.00     0.005
  5228.00     0.010
  5232.00    -0.015
  5236.00    -0.020
  5240.00     0.020
  5244.00    -0.005
  5248.00     0.020
  5252.00     0.055
  5256.00     0.030
  5260.00    -0.005
  5264.00    -0.015
  5268.00     0.035
  5272.00     0.065
  5276.00     0.020
  5280.00     0.025
  5284.00    -0.040
  5288.00     0.010
  5292.00     0.025
  5296.00     0.020
  5300.00     0.055
  5304.00     0.005
  5308.00     0.025
  5312.00     0.000
  5316.00     0.010
  5320.00     0.015
  5324.00    -0.040
  5328.00     0.005
  5332.00    -0.015
  5336.00     0.030
  5340.00     0.025
  5344.00     0.010
  5348.00     0.010
  5352.00     0.035
  5356.00     0.000
  5360.00    -0.070
  5364.00    -0.010
  5368.00     0.000
  5372.00     0.050
  5376.00     0.040
  5380.00     0.020
  5384.00     0.025
  5388.00     0.035
  5392.00    -0.070
  5396.00    -0.025
  5400.00     0.010
  5404.00     0.090
  5408.00     0.050
  5412.00     0.065
  5416.00     0.020
  5420.00     0.020
  5424.00     0.020
  5428.00    -0.010
  5432.00     0.005
  5436.00     0.065
  5440.00     0.045
  5444.00     0.030
  5448.00     0.030
  5452.00     0.005
  5456.00     0.115
  5460.00     0.050
  5464.00     0.020
  5468.00     0.075
  5472.00     0.015
  5476.00     0.005
  5480.00     0.085
  5484.00     0.030
  5488.00     0.130
  5492.00     0.090
  5496.00     0.045
  5500.00     0.060
  5504.00     0.075
  5508.00     0.200
  5512.00     0.175
  5516.00     0.155
  5520.00     0.110
  5524.00     0.295
  5528.00     0.320
  5532.00     0.450
  5536.00     0.510
  5540.00     0.545
  5544.00     0.660
  5548.00     0.945
  5552.00     0.900
  5556.00     1.095
  5560.00     1.275
  5564.00     1.635
  5568.00     2.020
  5572.00     2.240
  5576.00     2.810
  5580.00     3.175
  5584.00     3.575
  5588.00     4.220
  5592.00     4.790
  5596.00     5.915
  5600.00     6.580
  5604.00     7.590
  5608.00     8.405
  5612.00     9.895
  5616.00    10.850
  5620.00    12.390
  5624.00    13.680
  5628.00    15.000
  5632.00    16.505
  5636.00    18.145
  5640.00    19.735
  5644.00    21.855
  5648.00    23.510
  5652.00    25.205
  5656.00    27.735
  5660.00    29.245
  5664.00    31.485
  5668.00    33.615
  5672.00    35.405
  5676.00    37.835
  5680.00    39.065
  5684.00    41.575
  5688.00    43.025
  5692.00    44.865
  5696.00    46.790
  5700.00    48.900
  5704.00    50.735
  5708.00    51.795
  5712.00    54.320
  5716.00    55.425
  5720.00    57.865
  5724.00    58.615
  5728.00    60.020
  5732.00    61.800
  5736.00    64.000
  5740.00    64.190
  5744.00    65.640
  5748.00    66.585
  5752.00    67.765
  5756.00    69.140
  5760.00    69.865
  5764.00    70.660
  5768.00    71.100
  5772.00    72.805
  5776.00    73.150
  5780.00    74.340
  5784.00    74.780
  5788.00    75.365
  5792.00    76.175
  5796.00    77.220
  5800.00    77.610
  5804.00    78.235
  5808.00    78.605
  5812.00    78.980
  5816.00    79.660
  5820.00    79.215
  5824.00    80.280
  5828.00    80.180
  5832.00    82.045
  5836.00    81.075
  5840.00    81.835
  5844.00    81.895
  5848.00    82.625
  5852.00    82.675
  5856.00    82.415
  5860.00    82.850
  5864.00    82.020
  5868.00    82.435
  5872.00    83.755
  5876.00    83.155
  5880.00    83.545
  5884.00    83.680
  5888.00    83.090
  5892.00    84.635
  5896.00    83.600
  5900.00    84.650
  5904.00    85.290
  5908.00    85.150
  5912.00    84.645
  5916.00    84.155
  5920.00    84.925
  5924.00    84.815
  5928.00    84.165
  5932.00    85.680
  5936.00    84.950
  5940.00    85.275
  5944.00    84.290
  5948.00    85.315
  5952.00    85.230
  5956.00    85.450
  5960.00    84.320
  5964.00    86.490
  5968.00    84.330
  5972.00    84.945
  5976.00    85.675
  5980.00    84.715
  5984.00    85.690
  5988.00    84.320
  5992.00    84.930
  5996.00    85.065
  6000.00    84.715
  6004.00    85.165
  6008.00    85.785
  6012.00    84.700
  6016.00    84.540
  6020.00    84.330
  6024.00    85.700
  6028.00    85.525
  6032.00    84.905
  6036.00    84.800
  6040.00    85.050
  6044.00    84.185
  6048.00    84.270
  6052.00    85.005
  6056.00    84.490
  6060.00    85.540
  6064.00    84.390
  6068.00    82.925
  6072.00    84.385
  6076.00    85.050
  6080.00    83.055
  6084.00    83.205
  6088.00    83.220
  6092.00    84.110
  6096.00    83.875
  6100.00    83.790
  6104.00    83.530
  6108.00    83.905
  6112.00    82.470
  6116.00    83.300
  6120.00    83.225
  6124.00    81.900
  6128.00    82.285
  6132.00    81.935
  6136.00    82.310
  6140.00    82.160
  6144.00    82.550
  6148.00    83.050
  6152.00    83.150
  6156.00    82.450
  6160.00    82.365
  6164.00    82.985
  6168.00    82.305
  6172.00    82.040
  6176.00    82.220
  6180.00    81.265
  6184.00    82.345
  6188.00    82.100
  6192.00    82.145
  6196.00    81.590
  6200.00    81.320
  6204.00    80.265
  6208.00    81.270
  6212.00    80.640
  6216.00    80.245
  6220.00    80.340
  6224.00    80.550
  6228.00    80.355
  6232.00    79.455
  6236.00    79.850
  6240.00    80.085
  6244.00    81.170
  6248.00    80.025
  6252.00    80.115
  6256.00    80.425
  6260.00    79.745
  6264.00    79.445
  6268.00    79.245
  6272.00    78.720
  6276.00    78.720
  6280.00    79.160
  6284.00    78.145
  6288.00    78.790
  6292.00    80.080
  6296.00    78.165
  6300.00    78.585
  6304.00    78.545
  6308.00    78.540
  6312.00    77.855
  6316.00    78.180
  6320.00    78.120
  6324.00    77.360
  6328.00    77.755
  6332.00    76.770
  6336.00    77.020
  6340.00    77.100
  6344.00    77.535
  6348.00    77.245
  6352.00    77.620
  6356.00    76.225
  6360.00    76.300
  6364.00    77.195
  6368.00    76.155
  6372.00    75.650
  6376.00    76.345
  6380.00    76.620
  6384.00    76.430
  6388.00    75.275
  6392.00    75.430
  6396.00    75.490
  6400.00    75.695
  6404.00    74.770
  6408.00    74.570
  6412.00    75.520
  6416.00    73.760
  6420.00    74.580
  6424.00    73.920
  6428.00    73.280
  6432.00    73.930
  6436.00    73.185
  6440.00    74.410
  6444.00    74.115
  6448.00    74.275
  6452.00    73.705
  6456.00    73.310
  6460.00    74.045
  6464.00    73.715
  6468.00    73.450
  6472.00    73.605
  6476.00    72.700
  6480.00    73.140
  6484.00    72.255
  6488.00    72.300
  6492.00    72.535
  6496.00    71.890
  6500.00    72.525
  6504.00    71.175
  6508.00    71.520
  6512.00    70.725
  6516.00    70.625
  6520.00    71.205
  6524.00    71.640
  6528.00    70.650
  6532.00    70.595
  6536.00    70.510
  6540.00    71.350
  6544.00    70.180
  6548.00    70.215
  6552.00    69.555
  6556.00    69.475
  6560.00    69.255
  6564.00    68.285
  6568.00    69.690
  6572.00    69.925
  6576.00    69.545
  6580.00    69.275
  6584.00    68.875
  6588.00    68.495
  6592.00    68.220
  6596.00    68.140
  6600.00    68.110
  6604.00    68.285
  6608.00    68.075
  6612.00    67.410
  6616.00    68.535
  6620.00    68.245
  6624.00    68.285
  6628.00    67.085
  6632.00    68.165
  6636.00    66.825
  6640.00    66.965
  6644.00    66.460
  6648.00    65.865
  6652.00    66.330
  6656.00    65.165
  6660.00    66.120
  6664.00    66.085
  6668.00    66.210
  6672.00    66.205
  6676.00    64.690
  6680.00    65.130
  6684.00    65.380
  6688.00    65.185
  6692.00    63.150
  6696.00    63.595
  6700.00    65.255
  6704.00    66.145
  6708.00    64.480
  6712.00    64.490
  6716.00    63.990
  6720.00    63.690
  6724.00    64.325
  6728.00    63.390
  6732.00    63.140
  6736.00    62.175
  6740.00    62.745
  6744.00    62.360
  6748.00    63.245
  6752.00    62.405
  6756.00    61.520
  6760.00    62.395
  6764.00    60.285
  6768.00    62.780
  6772.00    62.205
  6776.00    60.770
  6780.00    60.355
  6784.00    60.955
  6788.00    61.085
  6792.00    61.965
  6796.00    60.645
  6800.00    60.015
  6804.00    60.040
  6808.00    59.920
  6812.00    59.860
  6816.00    59.745
  6820.00    59.645
  6824.00    59.360
  6828.00    59.185
  6832.00    58.770
  6836.00    59.025
  6840.00    56.785
  6844.00    58.725
  6848.00    58.080
  6852.00    57.820
  6856.00    58.950
  6860.00    57.205
  6864.00    58.285
  6868.00    56.635
  6872.00    57.485
  6876.00    57.390
  6880.00    57.270
  6884.00    56.650
  6888.00    57.385
  6892.00    55.420
  6896.00    56.780
  6900.00    55.525
  6904.00    55.585
  6908.00    55.165
  6912.00    55.775
  6916.00    54.780
  6920.00    54.660
  6924.00    54.690
  6928.00    55.215
  6932.00    54.170
  6936.00    53.290
  6940.00    55.260
  6944.00    53.735
  6948.00    53.130
  6952.00    53.165
  6956.00    53.355
  6960.00    53.230
  6964.00    52.335
  6968.00    53.100
  6972.00    52.245
  6976.00    52.415
  6980.00    51.975
  6984.00    51.520
  6988.00    51.495
  6992.00    51.715
  6996.00    51.635
  7000.00    50.145
  7004.00    50.780
  7008.00    51.890
  7012.00    50.225
  7016.00    49.935
  7020.00    50.225
  7024.00    49.975
  7028.00    49.415
  7032.00    49.175
  7036.00    48.390
  7040.00    48.955
  7044.00    49.780
  7048.00    49.240
  7052.00    48.485
  7056.00    48.705
  7060.00    48.295
  7064.00    48.250
  7068.00    48.500
  7072.00    47.950
  7076.00    47.730
  7080.00    48.135
  7084.00    47.825
  7088.00    45.610
  7092.00    47.985
  7096.00    46.310
  7100.00    46.265
  7104.00    46.590
  7108.00    45.585
  7112.00    46.555
  7116.00    46.735
  7120.00    44.945
  7124.00    45.335
  7128.00    44.870
  7132.00    45.560
  7136.00    44.850
  7140.00    45.245
  7144.00    44.255
  7148.00    44.655
  7152.00    44.145
  7156.00    43.845
  7160.00    43.550
  7164.00    43.065
  7168.00    42.400
  7172.00    43.175
  7176.00    43.490
  7180.00    41.400
  7184.00    42.575
  7188.00    42.510
  7192.00    42.095
  7196.00    41.730
  7200.00    42.785
  7204.00    42.400
  7208.00    42.745
  7212.00    40.900
  7216.00    41.475
  7220.00    40.960
  7224.00    40.685
  7228.00    41.110
  7232.00    39.820
  7236.00    40.550
  7240.00    40.295
  7244.00    40.260
  7248.00    41.175
  7252.00    40.790
  7256.00    39.125
  7260.00    39.120
  7264.00    39.470
  7268.00    39.180
  7272.00    39.435
  7276.00    37.725
  7280.00    39.805
  7284.00    38.075
  7288.00    38.700
  7292.00    38.040
  7296.00    38.030
  7300.00    38.375
  7304.00    37.425
  7308.00    37.970
  7312.00    37.795
  7316.00    36.595
  7320.00    36.295
  7324.00    36.555
  7328.00    38.445
  7332.00    35.365
  7336.00    35.950
  7340.00    35.750
  7344.00    36.240
  7348.00    34.495
  7352.00    35.880
  7356.00    36.025
  7360.00    36.115
  7364.00    35.100
  7368.00    34.755
  7372.00    34.285
  7376.00    34.470
  7380.00    33.875
  7384.00    34.005
  7388.00    33.590
  7392.00    33.395
  7396.00    33.560
  7400.00    33.650
  7404.00    32.955
  7408.00    33.545
  7412.00    33.775
  7416.00    32.350
  7420.00    33.390
  7424.00    31.510
  7428.00    33.120
  7432.00    32.735
  7436.00    32.035
  7440.00    31.560
  7444.00    32.565
  7448.00    32.855
  7452.00    31.340
  7456.00    32.305
  7460.00    30.865
  7464.00    31.200
  7468.00    31.460
  7472.00    30.220
  7476.00    30.630
  7480.00    30.905
  7484.00    29.905
  7488.00    28.425
  7492.00    28.880
  7496.00    29.390
  7500.00    30.610
  7504.00    29.625
  7508.00    29.260
  7512.00    28.635
  7516.00    29.010
  7520.00    29.095
  7524.00    28.770
  7528.00    30.000
  7532.00    28.835
  7536.00    28.820
  7540.00    27.750
  7544.00    28.415
  7548.00    28.615
  7552.00    26.845
  7556.00    27.035
  7560.00    26.600
  7564.00    26.785
  7568.00    27.390
  7572.00    27.540
  7576.00    26.875
  7580.00    26.635
  7584.00    25.900
  7588.00    26.845
  7592.00    25.820
  7596.00    26.865
  7600.00    26.715
  7604.00    25.905
  7608.00    24.315
  7612.00    24.550
  7616.00    25.730
  7620.00    24.300
  7624.00    24.620
  7628.00    25.190
  7632.00    24.075
  7636.00    24.365
  7640.00    25.815
  7644.00    23.765
  7648.00    24.810
  7652.00    23.045
  7656.00    23.365
  7660.00    24.105
  7664.00    24.730
  7668.00    23.440
  7672.00    22.520
  7676.00    23.065
  7680.00    22.890
  7684.00    22.690
  7688.00    23.125
  7692.00    22.205
  7696.00    23.725
  7700.00    21.210
  7704.00    22.410
  7708.00    21.420
  7712.00    22.615
  7716.00    20.815
  7720.00    22.780
  7724.00    22.035
  7728.00    22.175
  7732.00    22.240
  7736.00    21.615
  7740.00    21.045
  7744.00    22.065
  7748.00    21.275
  7752.00    20.805
  7756.00    20.400
  7760.00    21.005
  7764.00    19.950
  7768.00    20.045
  7772.00    19.445
  7776.00    20.070
  7780.00    19.565
  7784.00    18.255
  7788.00    19.335
  7792.00    20.385
  7796.00    19.030
  7800.00    18.385
  7804.00    18.735
  7808.00    19.965
  7812.00    18.905
  7816.00    17.470
  7820.00    18.270
  7824.00    18.795
  7828.00    18.285
  7832.00    18.480
  7836.00    16.075
  7840.00    18.255
  7844.00    19.640
  7848.00    17.930
  7852.00    18.330
  7856.00    17.330
  7860.00    17.465
  7864.00    16.480
  7868.00    15.835
  7872.00    17.240
  7876.00    17.415
  7880.00    18.235
  7884.00    16.455
  7888.00    16.930
  7892.00    15.200
  7896.00    16.515
  7900.00    15.680
  7904.00    16.655
  7908.00    16.505
  7912.00    15.660
  7916.00    15.015
  7920.00    16.485
  7924.00    15.740
  7928.00    16.230
  7932.00    14.605
  7936.00    14.330
  7940.00    15.570
  7944.00    14.530
  7948.00    13.030
  7952.00    14.540
  7956.00    13.570
  7960.00    13.310
  7964.00    15.515
  7968.00    13.855
  7972.00    13.435
  7976.00    13.460
  7980.00    16.655
  7984.00    12.710
  7988.00    14.025
  7992.00    13.145
  7996.00    13.240
  8000.00    12.540
  8004.00    13.535
  8008.00    13.905
  8012.00    12.970
  8016.00    11.940
  8020.00    11.615
  8024.00    14.860
  8028.00    12.655
  8032.00    13.270
  8036.00    12.425
  8040.00    12.090
  8044.00    12.185
  8048.00    12.600
  8052.00    12.380
  8056.00    11.625
  8060.00    12.935
  8064.00    10.560
  8068.00    12.840
  8072.00    11.660
  8076.00    12.355
  8080.00     9.560
  8084.00    10.355
  8088.00    11.635
  8092.00    10.480
  8096.00    10.210
  8100.00    11.685
  8104.00    11.950
  8108.00    11.320
  8112.00    11.005
  8116.00     9.810
  8120.00    10.325
  8124.00    12.150
  8128.00    12.505
  8132.00    11.660
  8136.00     7.685
  8140.00     9.590
  8144.00    10.325
  8148.00    10.300
  8152.00    10.350
  8156.00     8.870
  8160.00     8.890
  8164.00     9.855
  8168.00    11.665
  8172.00     9.285
  8176.00     8.450
  8180.00    10.500
  8184.00    10.325
  8188.00     9.890
  8192.00     8.765
  8196.00     8.400
  8200.00     9.905
  8204.00    10.870
  8208.00     8.725
  8212.00     7.240
  8216.00     9.950
  8220.00     9.940
  8224.00     8.580
  8228.00     9.435
  8232.00     7.350
  8236.00     7.755
  8240.00     7.050
  8244.00     9.240
  8248.00     8.885
  8252.00     8.415
  8256.00     9.140
  8260.00    10.010
  8264.00     8.140
  8268.00     7.320
  8272.00     8.190
  8276.00     6.795
  8280.00     9.720
  8284.00     8.805
  8288.00     7.990
  8292.00     7.990
  8296.00     8.475
  8300.00     9.660
  8304.00     6.650
  8308.00     8.035
  8312.00     9.345
  8316.00     6.465
  8320.00     5.735
  8324.00     6.630
  8328.00     7.715
  8332.00     9.050
  8336.00     6.230
  8340.00     7.345
  8344.00     6.890
  8348.00     7.630
  8352.00     7.720
  8356.00     6.075
  8360.00     4.930
  8364.00     7.340
  8368.00     8.195
  8372.00     7.740
  8376.00     6.215
  8380.00     6.240
  8384.00     2.210
  8388.00     8.690
  8392.00     4.790
  8396.00     6.485
  8400.00     5.225
  8404.00     3.885
  8408.00     8.030
  8412.00     8.510
  8416.00     4.285
  8420.00     7.270
  8424.00     5.300
  8428.00     5.945
  8432.00     7.015
  8436.00     2.950
  8440.00     5.335
  8444.00     4.415
  8448.00     4.350
  8452.00     3.760
  8456.00     7.395
  8460.00     4.645
  8464.00     7.460
  8468.00     5.550
  8472.00     4.205
  8476.00     4.865
  8480.00     9.265
  8484.00     2.505
  8488.00     6.545
  8492.00     7.510
  8496.00     6.135
  8500.00     5.310
  8504.00     5.605
  8508.00     3.030
  8512.00     5.615
  8516.00     0.790
  8520.00     3.055
  8524.00     2.690
  8528.00     2.555
  8532.00     6.065
  8536.00     4.220
  8540.00     5.020
  8544.00     3.010
  8548.00     1.890
  8552.00     4.040
  8556.00     3.790
  8560.00     6.030
  8564.00     6.480
  8568.00     6.500
  8572.00     3.505
  8576.00     5.660
  8580.00    12.645
  8584.00    10.180
  8588.00    11.155
  8592.00    18.105
  8596.00    12.105
  8600.00    12.555
  8604.00    12.030
  8608.00     3.865
  8612.00     4.120
  8616.00     4.045
  8620.00     4.010
  8624.00     3.990
  8628.00     3.985
  8632.00     3.910
  8636.00     3.900
  8640.00     3.835
  8644.00     3.760
  8648.00     3.745
  8652.00     3.730
  8656.00     3.690
  8660.00     3.670
  8664.00     3.605
  8668.00     3.635
  8672.00     3.615
  8676.00     3.560
  8680.00     3.520
  8684.00     3.460
  8688.00     3.480
  8692.00     3.475
  8696.00     3.450
  8700.00     3.355
  8704.00     3.400
  8708.00     3.340
  8712.00     3.295
  8716.00     3.245
  8720.00     3.240
  8724.00     3.170
  8728.00     3.195
  8732.00     3.135
  8736.00     3.080
  8740.00     3.040
  8744.00     3.065
  8748.00     3.045
  8752.00     3.045
  8756.00     2.955
  8760.00     2.975
  8764.00     2.880
  8768.00     2.905
  8772.00     2.880
  8776.00     2.850
  8780.00     2.825
  8784.00     2.790
  8788.00     2.800
  8792.00     2.810
  8796.00     2.750
  8800.00     2.740
  8804.00     2.705
  8808.00     2.725
  8812.00     2.685
  8816.00     2.620
  8820.00     2.605
  8824.00     2.570
  8828.00     2.565
  8832.00     2.540
  8836.00     2.485
  8840.00     2.500
  8844.00     2.440
  8848.00     2.455
  8852.00     2.425
  8856.00     2.370
  8860.00     2.370
  8864.00     2.390
  8868.00     2.350
  8872.00     2.345
  8876.00     2.315
  8880.00     2.275
  8884.00     2.305
  8888.00     2.295
  8892.00     2.215
  8896.00     2.220
  8900.00     2.165
  8904.00     2.135
  8908.00     2.150
  8912.00     2.120
  8916.00     2.075
  8920.00     2.085
  8924.00     2.045
  8928.00     2.020
  8932.00     1.980
  8936.00     1.970
  8940.00     1.975
  8944.00     1.970
  8948.00     1.935
  8952.00     1.905
  8956.00     1.905
  8960.00     1.940
  8964.00     1.945
  8968.00     1.880
  8972.00     1.805
  8976.00     1.810
  8980.00     1.800
  8984.00     1.820
  8988.00     1.775
  8992.00     1.780
  8996.00     1.770
  9000.00     1.775
  9004.00     1.765
  9008.00     1.735
  9012.00     1.695
  9016.00     1.670
  9020.00     1.695
  9024.00     1.595
  9028.00     1.680
  9032.00     1.620
  9036.00     1.630
  9040.00     1.525
  9044.00     1.605
  9048.00     1.540
  9052.00     1.545
  9056.00     1.550
  9060.00     1.525
  9064.00     1.515
  9068.00     1.490
  9072.00     1.450
  9076.00     1.480
  9080.00     1.410
  9084.00     1.440
  9088.00     1.510
  9092.00     1.445
  9096.00     1.380
  9100.00     1.420
  9104.00     1.450
  9108.00     1.380
  9112.00     1.345
  9116.00     1.320
  9120.00     1.335
  9124.00     1.355
  9128.00     1.340
  9132.00     1.290
  9136.00     1.265
  9140.00     1.270
  9144.00     1.240
  9148.00     1.290
  9152.00     1.215
  9156.00     1.200
  9160.00     1.230
  9164.00     1.190
  9168.00     1.210
  9172.00     1.195
  9176.00     1.190
  9180.00     1.195
  9184.00     1.115
  9188.00     1.105
  9192.00     1.160
  9196.00     1.130
  9200.00     1.155
  9204.00     1.115
  9208.00     1.080
  9212.00     1.125
  9216.00     1.035
  9220.00     1.045
  9224.00     1.105
  9228.00     1.130
  9232.00     1.015
  9236.00     1.045
  9240.00     1.005
  9244.00     0.975
  9248.00     1.050
  9252.00     1.040
  9256.00     0.960
  9260.00     0.960
  9264.00     0.985
  9268.00     0.975
  9272.00     0.940
  9276.00     1.000
  9280.00     0.965
  9284.00     0.920
  9288.00     0.895
  9292.00     0.930
  9296.00     0.895
  9300.00     0.875
  9304.00     0.885
  9308.00     0.885
  9312.00     0.835
  9316.00     0.920
  9320.00     0.820
  9324.00     0.870
  9328.00     0.865
  9332.00     0.815
  9336.00     0.875
  9340.00     0.820
  9344.00     0.825
  9348.00     0.800
  9352.00     0.775
  9356.00     0.760
  9360.00     0.810
  9364.00     0.785
  9368.00     0.770
  9372.00     0.830
  9376.00     0.785
  9380.00     0.795
  9384.00     0.705
  9388.00     0.750
  9392.00     0.795
  9396.00     0.730
  9400.00     0.760
  9404.00     0.795
  9408.00     0.655
  9412.00     0.735
  9416.00     0.695
  9420.00     0.690
  9424.00     0.660
  9428.00     0.655
  9432.00     0.725
  9436.00     0.635
  9440.00     0.655
  9444.00     0.670
  9448.00     0.695
  9452.00     0.690
  9456.00     0.620
  9460.00     0.670
  9464.00     0.635
  9468.00     0.600
  9472.00     0.660
  9476.00     0.615
  9480.00     0.640
  9484.00     0.595
  9488.00     0.615
  9492.00     0.655
  9496.00     0.580
  9500.00     0.590
  9504.00     0.565
  9508.00     0.595
  9512.00     0.625
  9516.00     0.620
  9520.00     0.490
  9524.00     0.615
  9528.00     0.545
  9532.00     0.570
  9536.00     0.525
  9540.00     0.585
  9544.00     0.545
  9548.00     0.580
  9552.00     0.530
  9556.00     0.545
  9560.00     0.535
  9564.00     0.520
  9568.00     0.530
  9572.00     0.470
  9576.00     0.535
  9580.00     0.475
  9584.00     0.520
  9588.00     0.540
  9592.00     0.500
  9596.00     0.475
  9600.00     0.475
  9604.00     0.525
  9608.00     0.470
  9612.00     0.435
  9616.00     0.475
  9620.00     0.455
  9624.00     0.480
  9628.00     0.460
  9632.00     0.420
  9636.00     0.450
  9640.00     0.420
  9644.00     0.495
  9648.00     0.465
  9652.00     0.415
  9656.00     0.505
  9660.00     0.425
  9664.00     0.420
  9668.00     0.410
  9672.00     0.445
  9676.00     0.435
  9680.00     0.450
  9684.00     0.400
  9688.00     0.400
  9692.00     0.405
  9696.00     0.440
  9700.00     0.380
  9704.00     0.420
  9708.00     0.405
  9712.00     0.455
  9716.00     0.390
  9720.00     0.315
  9724.00     0.410
  9728.00     0.355
  9732.00     0.320
  9736.00     0.390
  9740.00     0.415
  9744.00     0.290
  9748.00     0.370
  9752.00     0.375
  9756.00     0.355
  9760.00     0.370
  9764.00     0.370
  9768.00     0.365
  9772.00     0.335
  9776.00     0.335
  9780.00     0.375
  9784.00     0.315
  9788.00     0.355
  9792.00     0.320
  9796.00     0.235
  9800.00     0.345
  9804.00     0.305
  9808.00     0.295
  9812.00     0.360
  9816.00     0.345
  9820.00     0.285
  9824.00     0.355
  9828.00     0.350
  9832.00     0.275
  9836.00     0.335
  9840.00     0.345
  9844.00     0.285
  9848.00     0.350
  9852.00     0.310
  9856.00     0.290
  9860.00     0.325
  9864.00     0.295
  9868.00     0.325
  9872.00     0.300
  9876.00     0.250
  9880.00     0.250
  9884.00     0.250
  9888.00     0.240
  9892.00     0.295
  9896.00     0.285
  9900.00     0.270
  9904.00     0.295
  9908.00     0.300
  9912.00     0.220
  9916.00     0.290
  9920.00     0.290
  9924.00     0.270
  9928.00     0.280
  9932.00     0.310
  9936.00     0.270
  9940.00     0.220
  9944.00     0.285
  9948.00     0.325
  9952.00     0.225
  9956.00     0.260
  9960.00     0.285
  9964.00     0.225
  9968.00     0.235
  9972.00     0.230
  9976.00     0.220
  9980.00     0.270
  9984.00     0.245
  9988.00     0.265
  9992.00     0.230
  9996.00     0.275
 10000.00     0.255
