# ING Filter Throughput Data
# Serial Number : 214
# Filtername    : WFCSloanR
# Filtersystem  : Sloan Gunn
# Passband      : R
# FWHM          : 1347
# Cosmetics     : Some minor fingerprints/smudges
#few dust grains
# Measured      : 2005-03-02 12:03:19
# Wavelength Throughput
# nm %
500.5 0.0002
501 0.0005
501.5 -0.0003
502 0.0005
502.5 -0.0002
503 0.0002
503.5 0.0001
504 0.0021
504.5 0.0004
505 0.0001
505.5 0.0001
506 0
506.5 0.0008
507 0.001
507.5 0.0001
508 0
508.5 -0.0002
509 0.0003
509.5 -0.0001
510 0.0001
510.5 0.0003
511 0.0001
511.5 -0.0009
512 -0.0001
512.5 -0.0001
513 0.0003
513.5 -0.0004
514 -0.0005
514.5 -0.0003
515 -0.0003
515.5 -0.0002
516 0.0003
516.5 -0.0001
517 -0.0006
517.5 0.0002
518 -0.0006
518.5 0.0004
519 -0.0003
519.5 -0.0005
520 -0.0007
520.5 -0.0006
521 0.0001
521.5 -0.0002
522 -0.0002
522.5 -0.0001
523 0.001
523.5 0.0002
524 -0.0002
524.5 0.0004
525 0.0005
525.5 0.0001
526 0.0004
526.5 0.0004
527 0.0004
527.5 0.0004
528 -0.0005
528.5 0.0006
529 -0.0002
529.5 0
530 -0.0001
530.5 0.0002
531 0
531.5 0.0009
532 -0.0002
532.5 0.0001
533 0.0004
533.5 0.0003
534 0.0003
534.5 0.0003
535 0.0001
535.5 0.0007
536 -0.0003
536.5 0.0012
537 0.0005
537.5 0.0015
538 0.0012
538.5 0.0025
539 0.0036
539.5 0.0066
540 0.0117
540.5 0.0204
541 0.0355
541.5 0.0581
542 0.0975
542.5 0.1569
543 0.2476
543.5 0.3801
544 0.5652
544.5 0.8193
545 1.1744
545.5 1.6234
546 2.213
546.5 2.9538
547 3.8709
547.5 4.9663
548 6.2348
548.5 7.6861
549 9.3581
549.5 11.0832
550 12.993
550.5 14.9641
551 17.0454
551.5 19.1186
552 21.2236
552.5 23.3666
553 25.598
553.5 27.7627
554 30.0245
554.5 32.2871
555 34.5775
555.5 36.8551
556 39.0988
556.5 41.3149
557 43.5085
557.5 45.4558
558 47.3129
558.5 48.9893
559 50.513
559.5 51.8567
560 52.9932
560.5 53.9966
561 54.9622
561.5 55.8528
562 56.7174
562.5 57.5401
563 58.4709
563.5 59.4212
564 60.3932
564.5 61.4573
565 62.5264
565.5 63.6568
566 64.7783
566.5 65.9526
567 67.0761
567.5 68.2386
568 69.3139
568.5 70.3957
569 70.8914
569.5 72.5802
570 73.627
570.5 74.5967
571 75.5769
571.5 76.4932
572 77.4032
572.5 78.2484
573 79.1144
573.5 79.9291
574 80.6235
574.5 81.3712
575 81.9152
575.5 82.4803
576 82.9778
576.5 83.4856
577 83.9158
577.5 84.3079
578 84.666
578.5 84.9738
579 85.3278
579.5 85.5856
580 85.8972
580.5 86.2375
581 86.5649
581.5 86.8855
582 87.1953
582.5 87.5101
583 87.7994
583.5 88.0258
584 88.2473
584.5 88.3531
585 88.5027
585.5 88.5272
586 88.43
586.5 88.4499
587 88.4227
587.5 88.2997
588 88.1438
588.5 88.0993
589 88.0256
589.5 87.9745
590 88.0647
590.5 88.02
591 88.1787
591.5 88.3198
592 88.5347
592.5 88.7482
593 89.0279
593.5 89.239
594 89.4568
594.5 89.7034
595 89.8038
595.5 89.8979
596 89.9414
596.5 89.8882
597 89.8702
597.5 89.7067
598 89.5478
598.5 89.3484
599 89.16
599.5 88.9415
600 88.6857
600.5 88.4799
601 88.2909
601.5 88.0936
602 88.0706
602.5 87.878
603 87.7929
603.5 87.8325
604 87.8333
604.5 87.8588
605 87.8755
605.5 87.8672
606 88.0128
606.5 88.0776
607 88.2975
607.5 88.3947
608 88.4931
608.5 88.6531
609 88.6423
609.5 88.6265
610 88.5667
610.5 88.5007
611 88.333
611.5 88.07
612 87.8164
612.5 87.5154
613 87.1671
613.5 86.944
614 86.6496
614.5 86.4104
615 86.2021
615.5 86.1059
616 85.9861
616.5 86.0248
617 86.1755
617.5 86.3296
618 86.5304
618.5 86.8012
619 87.0432
619.5 87.2756
620 87.5005
620.5 87.6559
621 87.7886
621.5 87.8573
622 87.7238
622.5 87.6316
623 87.3482
623.5 87.057
624 86.7463
624.5 86.3478
625 85.9613
625.5 85.6077
626 85.2223
626.5 84.725
627 84.3055
627.5 83.9366
628 83.5742
628.5 83.1657
629 82.8528
629.5 82.5671
630 82.2855
630.5 82.0065
631 81.7647
631.5 81.5633
632 81.3888
632.5 81.2488
633 81.2093
633.5 81.1876
634 81.3231
634.5 81.4014
635 81.6205
635.5 81.9385
636 82.3303
636.5 82.7205
637 83.1499
637.5 83.6589
638 84.047
638.5 84.4803
639 84.7887
639.5 85.0099
640 85.1208
640.5 85.0809
641 84.8934
641.5 84.6211
642 84.087
642.5 83.5055
643 82.7376
643.5 81.8928
644 81.0922
644.5 80.1557
645 79.2988
645.5 78.4017
646 77.607
646.5 76.8157
647 76.0943
647.5 75.561
648 74.9471
648.5 74.6243
649 74.3082
649.5 74.1202
650 74.0517
650.5 73.9722
651 74.1537
651.5 74.2855
652 74.5756
652.5 74.8644
653 75.2944
653.5 75.7086
654 76.166
654.5 76.6734
655 77.2252
655.5 77.7385
656 78.2785
656.5 78.7225
657 79.2375
657.5 79.6475
658 80.1447
658.5 80.3396
659 80.5712
659.5 80.8149
660 80.8817
660.5 80.7857
661 80.5697
661.5 80.4238
662 80.1521
662.5 79.7455
663 79.2741
663.5 78.8516
664 78.3337
664.5 77.9419
665 77.3666
665.5 76.88
666 76.4492
666.5 75.9743
667 75.6404
667.5 75.3345
668 75.0203
668.5 74.801
669 74.6274
669.5 74.5187
670 74.4806
670.5 74.3684
671 74.3428
671.5 74.4112
672 74.502
672.5 74.5117
673 74.6076
673.5 74.661
674 74.7757
674.5 74.8548
675 74.8302
675.5 74.7185
676 74.6009
676.5 74.3879
677 74.0645
677.5 73.6266
678 73.0778
678.5 72.1974
679 71.3079
679.5 70.2295
680 69.0396
680.5 67.7264
681 66.141
681.5 64.6503
682 62.9708
682.5 61.3673
683 59.6875
683.5 58.0664
684 56.6587
684.5 55.2587
685 53.9905
685.5 52.9319
686 51.9602
686.5 51.149
687 50.4262
687.5 49.8494
688 49.3162
688.5 48.8883
689 48.3099
689.5 47.8586
690 47.2593
690.5 46.4809
691 45.6276
691.5 44.5607
692 43.4384
692.5 42.1515
693 40.5953
693.5 39.0939
694 37.2011
694.5 35.2409
695 32.9477
695.5 30.3748
696 27.5493
696.5 24.4872
697 21.1394
697.5 18.0339
698 14.9594
698.5 12.1955
699 9.7553
699.5 7.7794
700 6.1428
700.5 4.8614
701 3.8289
701.5 3.06
702 2.4454
702.5 1.9848
703 1.6176
703.5 1.3413
704 1.122
704.5 0.9431
705 0.8046
705.5 0.6951
706 0.6046
706.5 0.5335
707 0.4696
707.5 0.421
708 0.3783
708.5 0.3376
709 0.3085
709.5 0.2819
710 0.2547
710.5 0.2329
711 0.211
711.5 0.1923
712 0.1755
712.5 0.1569
713 0.139
713.5 0.1264
714 0.1116
714.5 0.1021
715 0.0894
715.5 0.0805
716 0.0705
716.5 0.0648
717 0.0554
717.5 0.0521
718 0.0482
718.5 0.0432
719 0.0401
719.5 0.0358
720 0.0324
720.5 0.0311
721 0.0289
721.5 0.0273
722 0.025
722.5 0.0232
723 0.0234
723.5 0.0232
724 0.021
724.5 0.0213
725 0.0206
725.5 0.0194
726 0.0204
726.5 0.0219
727 0.0201
727.5 0.0213
728 0.0196
728.5 0.0224
729 0.0215
729.5 0.0227
730 0.0237
730.5 0.0239
731 0.0232
731.5 0.0254
732 0.0251
732.5 0.0275
733 0.0272
733.5 0.0283
734 0.0271
734.5 0.0268
735 0.0271
735.5 0.0268
736 0.0244
736.5 0.0237
737 0.0226
737.5 0.0202
738 0.0197
738.5 0.0184
739 0.0183
739.5 0.0156
740 0.0143
740.5 0.0139
741 0.0131
741.5 0.012
742 0.01
742.5 0.0099
743 0.0095
743.5 0.0097
744 0.0101
744.5 0.0088
745 0.0086
745.5 0.009
746 0.0079
746.5 0.0084
747 0.0082
747.5 0.0077
748 0.0077
748.5 0.0077
749 0.0068
749.5 0.0078
750 0.0055
